##########################################################################################
### Pulsi_number Aeg[ms] ADC[0-1023] SiPM[mV] Surnud_aeg[ms] Temperatuur[C]
##########################################################################################
Olen Master nimega Sassu
1 250 51 15.86 0 23.15
2 265 51 15.86 14 -11.33
3 295 51 15.86 43 -24.86
4 321 51 15.86 69 -30.02
5 348 49 15.48 95 -31.95
6 376 51 15.86 121 -33.56
7 403 49 15.48 148 -34.53
8 432 51 15.86 176 -34.53
9 460 56 16.76 203 -34.42
10 491 51 15.86 233 -34.53
11 517 51 15.86 259 -34.53
12 547 49 15.48 287 -34.53
13 575 51 15.86 315 -34.32
14 604 49 15.48 343 -34.53
15 634 51 15.86 372 -34.53
16 662 51 15.86 400 -34.53
17 692 51 15.86 428 -34.53
18 721 54 16.41 456 -34.53
19 751 51 15.86 484 -34.53
20 779 51 15.86 512 -34.53
21 808 49 15.48 540 -34.53
22 838 51 15.86 568 -34.53
23 866 51 15.86 597 -34.53
24 896 49 15.48 625 -34.53
25 925 56 16.76 654 -34.53
26 953 51 15.86 682 -34.53
27 983 51 15.86 710 -34.53
28 1016 51 15.86 741 -34.53
29 1042 51 15.86 767 -34.53
30 1073 51 15.86 797 -34.53
31 1103 49 15.48 826 -34.53
32 1132 51 15.86 856 -34.53
33 1162 51 15.86 885 -34.53
34 1193 51 15.86 915 -34.53
35 1224 56 16.76 944 -34.42
36 1253 51 15.86 973 -34.53
37 1284 51 15.86 1003 -34.53
38 1315 51 15.86 1033 -34.53
39 1347 51 15.86 1064 -34.53
40 1377 51 15.86 1094 -34.53
41 1457 51 15.86 1173 -33.56
42 1473 51 15.86 1189 -34.53
43 1491 51 15.86 1205 -34.53
44 1507 51 15.86 1221 -34.53
45 1534 51 15.86 1247 -34.53
46 1568 51 15.86 1279 -34.53
47 1595 51 15.86 1306 -34.53
48 1627 51 15.86 1336 -34.53
49 1658 49 15.48 1366 -34.53
50 1690 51 15.86 1397 -34.53
51 1720 51 15.86 1427 -34.53
52 1751 51 15.86 1457 -34.53
53 1783 51 15.86 1487 -34.53
54 1813 51 15.86 1517 -34.53
55 1845 51 15.86 1548 -34.42
56 1876 51 15.86 1578 -34.53
57 1908 51 15.86 1609 -34.53
58 1939 51 15.86 1639 -34.32
59 1970 49 15.48 1669 -34.53
60 2002 51 15.86 1700 -34.53
61 2033 49 15.48 1730 -34.53
62 2063 51 15.86 1760 -34.53
63 2146 51 15.86 1842 -33.56
64 2164 49 15.48 1858 -34.53
65 2180 49 15.48 1874 -34.53
66 2196 51 15.86 1890 -34.53
67 2220 51 15.86 1913 -34.53
68 2252 51 15.86 1943 -34.53
69 2283 51 15.86 1974 -34.53
70 2314 51 15.86 2004 -34.53
71 2345 51 15.86 2034 -34.53
72 2377 49 15.48 2064 -34.53
73 2407 49 15.48 2095 -34.53
74 2439 51 15.86 2126 -34.53
75 2471 51 15.86 2157 -34.53
76 2502 49 15.48 2187 -34.53
77 2532 51 15.86 2217 -34.53
78 2563 49 15.48 2247 -34.53
79 2595 51 15.86 2278 -34.53
80 2629 49 15.48 2311 -34.53
81 2657 51 15.86 2339 -34.53
82 2689 51 15.86 2370 -34.32
83 2720 51 15.86 2400 -34.53
84 2751 49 15.48 2431 -34.53
85 2782 51 15.86 2461 -34.53
86 2814 56 16.76 2492 -34.53
87 2845 51 15.86 2522 -34.53
88 2875 49 15.48 2553 -34.53
89 2907 56 16.76 2583 -34.32
90 2938 51 15.86 2613 -34.53
91 2970 49 15.48 2644 -34.53
92 3000 51 15.86 2674 -34.53
93 3031 49 15.48 2705 -34.53
94 3063 51 15.86 2736 -34.53
95 3094 51 15.86 2767 -34.53
96 3125 51 15.86 2797 -34.53
97 3160 51 15.86 2830 -34.53
98 3188 49 15.48 2857 -34.53
99 3218 51 15.86 2888 -34.53
100 3299 51 15.86 2967 -34.42
101 3316 51 15.86 2983 -34.53
102 3333 51 15.86 2999 -34.53
103 3349 51 15.86 3015 -34.53
104 3379 51 15.86 3043 -34.53
105 3412 51 15.86 3075 -34.53
106 3443 49 15.48 3106 -34.53
107 3475 51 15.86 3138 -34.53
108 3508 56 16.76 3170 -34.32
109 3541 49 15.48 3202 -34.53
110 3573 51 15.86 3233 -34.53
111 3604 49 15.48 3264 -34.53
112 3637 51 15.86 3296 -34.42
113 3669 51 15.86 3327 -34.53
114 3704 49 15.48 3361 -34.53
115 3733 51 15.86 3390 -34.53
116 3765 51 15.86 3421 -34.53
117 3798 51 15.86 3452 -34.53
118 3830 49 15.48 3484 -34.53
119 3862 51 15.86 3515 -34.53
120 3894 56 16.76 3547 -34.21
121 3927 51 15.86 3578 -34.53
122 3959 51 15.86 3609 -34.53
123 3991 51 15.86 3641 -34.53
124 4023 51 15.86 3673 -34.53
125 4056 51 15.86 3704 -34.53
126 4137 51 15.86 3784 -33.56
127 4153 49 15.48 3800 -34.53
128 4170 51 15.86 3816 -34.53
129 4187 51 15.86 3832 -34.53
130 4220 51 15.86 3864 -34.53
131 4250 51 15.86 3892 -34.53
132 4282 56 16.76 3924 -34.32
133 4314 51 15.86 3955 -34.53
134 4346 49 15.48 3986 -34.53
135 4378 49 15.48 4018 -34.53
136 4410 51 15.86 4050 -34.53
137 4443 51 15.86 4082 -34.53
138 4475 51 15.86 4113 -34.53
139 4507 49 15.48 4144 -34.53
140 4539 49 15.48 4176 -34.53
141 4572 51 15.86 4208 -34.53
142 4604 51 15.86 4240 -34.53
143 4637 51 15.86 4271 -34.53
144 4668 51 15.86 4302 -34.53
145 4701 51 15.86 4333 -34.53
146 4733 51 15.86 4365 -34.42
147 4768 51 15.86 4399 -34.53
148 4797 51 15.86 4428 -34.53
149 4830 51 15.86 4459 -34.53
150 4862 51 15.86 4491 -34.42
151 4895 56 16.76 4523 -34.42
152 4926 56 16.76 4554 -34.53
153 4958 49 15.48 4585 -34.53
154 4991 51 15.86 4617 -34.53
155 5023 51 15.86 4648 -34.53
156 5055 51 15.86 4680 -34.53
157 5088 51 15.86 4711 -34.53
158 5120 51 15.86 4742 -34.53
159 5153 51 15.86 4774 -34.53
160 5234 51 15.86 4854 -33.56
161 5250 49 15.48 4870 -34.53
162 5266 51 15.86 4886 -34.53
163 5287 51 15.86 4905 -34.53
164 5313 49 15.48 4931 -34.53
165 5345 49 15.48 4962 -34.53
166 5378 51 15.86 4994 -34.53
167 5410 51 15.86 5026 -34.53
168 5443 51 15.86 5057 -34.53
169 5474 51 15.86 5088 -34.53
170 5507 51 15.86 5120 -34.42
171 5539 51 15.86 5151 -34.53
172 5572 51 15.86 5183 -34.53
173 5603 51 15.86 5214 -34.53
174 5636 51 15.86 5246 -34.53
175 5668 51 15.86 5277 -34.53
176 5701 51 15.86 5309 -34.53
177 5732 51 15.86 5341 -34.53
178 5765 51 15.86 5372 -34.53
179 5797 51 15.86 5403 -34.53
180 5832 51 15.86 5437 -34.53
181 5861 51 15.86 5465 -34.53
182 5893 49 15.48 5497 -34.53
183 5926 51 15.86 5529 -34.53
184 5958 49 15.48 5560 -34.53
185 5990 51 15.86 5592 -34.53
186 6022 51 15.86 5623 -34.53
187 6055 51 15.86 5655 -34.42
188 6087 49 15.48 5686 -34.53
189 6167 51 15.86 5766 -33.56
190 6185 51 15.86 5782 -34.53
191 6201 49 15.48 5798 -34.53
192 6218 51 15.86 5814 -34.53
193 6247 49 15.48 5843 -34.53
194 6280 51 15.86 5875 -34.53
195 6313 54 16.41 5907 -34.42
196 6348 51 15.86 5941 -34.53
197 6377 51 15.86 5970 -34.53
198 6410 51 15.86 6002 -34.53
199 6442 51 15.86 6033 -34.53
200 6475 49 15.48 6065 -34.53
201 6506 49 15.48 6097 -34.53
202 6538 49 15.48 6128 -34.53
203 6571 51 15.86 6160 -34.53
204 6603 51 15.86 6191 -34.53
205 6635 51 15.86 6223 -34.53
206 6667 51 15.86 6255 -34.53
207 6699 49 15.48 6286 -34.53
208 6732 49 15.48 6318 -34.53
209 6763 51 15.86 6349 -34.53
210 6796 49 15.48 6381 -34.53
211 6828 51 15.86 6412 -34.53
212 6861 49 15.48 6444 -34.53
213 6897 51 15.86 6479 -34.53
214 6925 51 15.86 6507 -34.53
215 6958 49 15.48 6539 -34.53
216 6990 49 15.48 6571 -34.53
217 7022 51 15.86 6602 -34.53
218 7054 51 15.86 6634 -34.53
219 7135 49 15.48 6714 -34.32
220 7152 51 15.86 6730 -34.53
221 7169 51 15.86 6746 -34.53
222 7185 51 15.86 6762 -34.53
223 7215 51 15.86 6791 -34.53
224 7248 51 15.86 6822 -34.53
225 7281 51 15.86 6854 -34.53
226 7312 51 15.86 6885 -34.53
227 7345 51 15.86 6917 -34.53
228 7377 51 15.86 6948 -34.53
229 7412 51 15.86 6982 -34.53
230 7441 51 15.86 7010 -34.53
231 7473 51 15.86 7041 -34.53
232 7506 51 15.86 7073 -34.42
233 7538 51 15.86 7104 -34.53
234 7570 49 15.48 7136 -34.53
235 7602 49 15.48 7167 -34.53
236 7634 56 16.76 7198 -34.53
237 7667 51 15.86 7230 -34.53
238 7699 51 15.86 7262 -34.53
239 7731 51 15.86 7293 -34.53
240 7764 49 15.48 7325 -34.53
241 7796 51 15.86 7356 -34.53
242 7828 51 15.86 7388 -34.32
243 7860 56 16.76 7419 -34.42
244 7893 51 15.86 7450 -34.53
245 7925 51 15.86 7481 -34.53
246 7959 49 15.48 7516 -34.53
247 7989 51 15.86 7544 -34.53
248 8021 51 15.86 7575 -34.53
249 8054 51 15.86 7607 -34.53
250 8085 51 15.86 7638 -34.53
251 8118 51 15.86 7670 -34.53
252 8199 51 15.86 7750 -33.56
253 8215 51 15.86 7766 -34.53
254 8233 51 15.86 7782 -34.53
255 8250 51 15.86 7798 -34.53
256 8279 49 15.48 7827 -34.53
257 8312 51 15.86 7858 -34.53
258 8343 51 15.86 7889 -34.53
259 8376 51 15.86 7921 -34.53
260 8408 51 15.86 7953 -34.53
261 8440 51 15.86 7984 -34.53
262 8476 49 15.48 8019 -34.53
263 8505 49 15.48 8048 -34.53
264 8537 51 15.86 8080 -34.53
265 8570 51 15.86 8112 -34.53
266 8602 51 15.86 8144 -34.53
267 8634 51 15.86 8176 -34.53
268 8666 51 15.86 8207 -34.53
269 8699 51 15.86 8239 -34.53
270 8731 51 15.86 8271 -34.53
271 8763 51 15.86 8302 -34.53
272 8795 51 15.86 8333 -34.53
273 8828 56 16.76 8365 -34.42
274 8860 51 15.86 8397 -34.53
275 8892 51 15.86 8428 -34.53
276 8924 51 15.86 8459 -34.53
277 8957 56 16.76 8491 -34.53
278 8989 51 15.86 8522 -34.53
279 9073 49 15.48 8605 -34.53
280 9089 51 15.86 8621 -34.53
281 9106 51 15.86 8637 -34.53
282 9124 49 15.48 8654 -34.53
283 9150 56 16.76 8681 -34.53
284 9183 51 15.86 8712 -34.53
285 9215 51 15.86 8743 -34.53
286 9247 49 15.48 8774 -34.53
287 9279 51 15.86 8806 -34.53
288 9312 51 15.86 8838 -34.53
289 9344 54 16.41 8869 -34.53
290 9376 51 15.86 8900 -34.53
291 9408 56 16.76 8932 -34.42
292 9441 51 15.86 8964 -34.53
293 9473 51 15.86 8995 -34.53
294 9506 51 15.86 9027 -34.53
295 9541 56 16.76 9062 -34.32
296 9569 51 15.86 9090 -34.53
297 9602 51 15.86 9122 -34.53
298 9635 51 15.86 9154 -34.53
299 9667 51 15.86 9185 -34.53
300 9699 56 16.76 9217 -34.21
301 9731 51 15.86 9248 -34.53
302 9763 51 15.86 9279 -34.53
303 9796 49 15.48 9310 -34.53
304 9828 51 15.86 9342 -34.53
305 9859 51 15.86 9373 -34.53
306 9892 51 15.86 9405 -34.53
307 9925 49 15.48 9437 -34.53
308 9956 51 15.86 9469 -34.53
309 9989 51 15.86 9500 -34.53
310 10021 51 15.86 9532 -34.53
311 10055 51 15.86 9565 -34.42
312 10090 56 16.76 9600 -34.42
313 10121 51 15.86 9630 -34.42
314 10154 51 15.86 9662 -34.53
315 10236 51 15.86 9743 -33.56
316 10253 51 15.86 9759 -34.53
317 10270 56 16.76 9775 -34.53
318 10287 51 15.86 9792 -34.53
319 10321 54 16.41 9825 -34.21
320 10354 51 15.86 9858 -34.42
321 10387 51 15.86 9890 -34.53
322 10420 51 15.86 9922 -34.53
323 10453 51 15.86 9954 -34.53
324 10487 51 15.86 9987 -34.42
325 10519 51 15.86 10019 -34.32
326 10554 51 15.86 10053 -34.32
327 10589 51 15.86 10087 -34.53
328 10626 51 15.86 10123 -34.42
329 10658 51 15.86 10154 -34.42
330 10693 51 15.86 10188 -34.53
331 10726 51 15.86 10221 -34.53
332 10760 49 15.48 10254 -34.53
333 10795 51 15.86 10288 -34.53
334 10829 51 15.86 10321 -34.53
335 10864 51 15.86 10354 -34.53
336 10898 51 15.86 10388 -34.53
337 10932 51 15.86 10422 -34.53
338 11015 51 15.86 10504 -33.56
339 11031 49 15.48 10520 -34.53
340 11049 51 15.86 10536 -34.53
341 11069 51 15.86 10556 -34.53
342 11104 54 16.41 10590 -34.53
343 11141 56 16.76 10627 -34.32
344 11172 49 15.48 10657 -34.53
345 11207 51 15.86 10691 -34.53
346 11241 56 16.76 10725 -34.32
347 11275 51 15.86 10758 -34.32
348 11310 51 15.86 10791 -34.53
349 11344 51 15.86 10824 -34.53
350 11379 49 15.48 10858 -34.53
351 11412 51 15.86 10891 -34.53
352 11447 51 15.86 10925 -34.53
353 11481 49 15.48 10958 -34.53
354 11515 51 15.86 10992 -34.53
355 11550 51 15.86 11026 -34.53
356 11584 54 16.41 11060 -34.21
357 11618 51 15.86 11093 -34.53
358 11653 51 15.86 11126 -34.53
359 11690 51 15.86 11163 -34.53
360 11722 56 16.76 11194 -34.21
361 11755 56 16.76 11227 -33.56
362 11790 56 16.76 11260 -33.56
363 11825 56 16.76 11293 -33.56
364 11859 49 15.48 11326 -34.53
365 11893 56 16.76 11360 -34.32
366 11929 51 15.86 11394 -34.53
367 11962 51 15.86 11427 -34.53
368 11996 51 15.86 11460 -34.53
369 12031 51 15.86 11494 -34.32
370 12065 51 15.86 11527 -34.53
371 12100 56 16.76 11560 -34.32
372 12133 51 15.86 11593 -34.53
373 12167 56 16.76 11626 -34.42
374 12205 51 15.86 11663 -34.42
375 12236 51 15.86 11694 -34.53
376 12271 56 16.76 11727 -34.42
377 12304 51 15.86 11760 -34.53
378 12388 51 15.86 11842 -32.17
379 12405 51 15.86 11858 -34.32
380 12421 56 16.76 11874 -34.32
381 12443 51 15.86 11894 -34.53
382 12476 51 15.86 11927 -34.53
383 12510 49 15.48 11960 -34.53
384 12545 56 16.76 11993 -34.32
385 12579 54 16.41 12027 -34.42
386 12614 54 16.41 12060 -34.53
387 12647 56 16.76 12093 -34.42
388 12682 49 15.48 12127 -34.53
389 12717 51 15.86 12161 -34.53
390 12755 51 15.86 12198 -34.53
391 12786 56 16.76 12228 -34.42
392 12819 51 15.86 12261 -34.53
393 12854 51 15.86 12295 -34.53
394 12888 51 15.86 12328 -34.53
395 12923 51 15.86 12361 -34.53
396 12957 51 15.86 12394 -34.53
397 13040 56 16.76 12476 -31.95
398 13057 51 15.86 12492 -34.32
399 13074 51 15.86 12508 -34.53
400 13094 51 15.86 12527 -34.53
401 13129 51 15.86 12561 -34.53
402 13163 51 15.86 12594 -34.53
403 13197 51 15.86 12627 -34.53
404 13231 51 15.86 12661 -34.53
405 13269 49 15.48 12698 -34.53
406 13301 56 16.76 12729 -34.53
407 13334 51 15.86 12763 -34.53
408 13369 51 15.86 12797 -34.53
409 13403 51 15.86 12830 -34.53
410 13437 56 16.76 12864 -34.42
411 13473 54 16.41 12898 -34.53
412 13507 51 15.86 12931 -34.53
413 13540 51 15.86 12964 -34.53
414 13575 51 15.86 12997 -34.53
415 13609 56 16.76 13030 -33.56
416 13643 49 15.48 13063 -34.53
417 13678 51 15.86 13097 -34.53
418 13712 51 15.86 13131 -34.53
419 13746 51 15.86 13164 -34.53
420 13781 51 15.86 13198 -34.53
421 13818 51 15.86 13235 -34.42
422 13850 51 15.86 13265 -34.53
423 13884 51 15.86 13299 -34.53
424 13918 51 15.86 13332 -34.53
425 13953 56 16.76 13366 -34.32
426 13987 51 15.86 13399 -34.53
427 14022 56 16.76 13432 -34.32
428 14055 51 15.86 13465 -34.53
429 14089 56 16.76 13498 -34.42
430 14124 56 16.76 13532 -34.53
431 14158 51 15.86 13566 -34.53
432 14193 49 15.48 13599 -34.53
433 14226 56 16.76 13633 -34.53
434 14261 51 15.86 13666 -34.53
435 14295 49 15.48 13700 -34.53
436 14333 51 15.86 13737 -34.53
437 14364 51 15.86 13767 -34.53
438 14398 51 15.86 13801 -34.53
439 14432 56 16.76 13834 -34.42
440 14467 51 15.86 13868 -34.53
441 14550 51 15.86 13950 -32.17
442 14567 51 15.86 13966 -34.21
443 14584 49 15.48 13982 -34.53
444 14604 51 15.86 14002 -34.53
445 14639 54 16.41 14035 -34.32
446 14673 51 15.86 14068 -34.53
447 14707 51 15.86 14102 -34.53
448 14741 51 15.86 14135 -34.53
449 14775 54 16.41 14168 -34.42
450 14810 51 15.86 14202 -34.53
451 14845 56 16.76 14236 -34.42
452 14882 51 15.86 14272 -34.53
453 14913 54 16.41 14303 -33.56
454 14947 51 15.86 14336 -34.42
455 14982 51 15.86 14370 -34.53
456 15065 56 16.76 14453 -31.95
457 15082 51 15.86 14469 -34.32
458 15100 51 15.86 14486 -34.53
459 15119 51 15.86 14505 -34.53
460 15153 51 15.86 14538 -34.53
461 15188 56 16.76 14571 -34.53
462 15222 51 15.86 14605 -34.53
463 15257 51 15.86 14638 -34.53
464 15290 51 15.86 14671 -34.42
465 15325 49 15.48 14704 -34.53
466 15359 49 15.48 14738 -34.53
467 15397 51 15.86 14775 -34.53
468 15428 56 16.76 14805 -34.32
469 15462 51 15.86 14839 -34.53
470 15496 49 15.48 14872 -34.53
471 15531 51 15.86 14906 -34.42
472 15566 51 15.86 14940 -34.53
473 15600 51 15.86 14973 -34.53
474 15633 49 15.48 15007 -34.53
475 15669 51 15.86 15041 -34.53
476 15703 51 15.86 15075 -34.53
477 15737 51 15.86 15108 -34.32
478 15772 49 15.48 15142 -34.53
479 15805 51 15.86 15176 -34.53
480 15840 51 15.86 15210 -34.53
481 15875 51 15.86 15243 -34.42
482 15908 51 15.86 15276 -34.53
483 15946 49 15.48 15313 -34.53
484 15976 51 15.86 15344 -34.53
485 16011 51 15.86 15378 -34.53
486 16046 49 15.48 15412 -34.53
487 16080 51 15.86 15446 -34.42
488 16115 54 16.41 15479 -34.21
489 16149 51 15.86 15513 -34.53
490 16183 51 15.86 15546 -34.53
491 16217 49 15.48 15579 -34.53
492 16252 56 16.76 15613 -34.53
493 16287 56 16.76 15647 -34.32
494 16320 51 15.86 15680 -34.42
495 16354 51 15.86 15713 -34.53
496 16389 51 15.86 15747 -34.53
497 16423 51 15.86 15780 -34.53
498 16461 51 15.86 15816 -34.32
499 16492 51 15.86 15847 -34.42
500 16526 51 15.86 15880 -34.53
501 16560 51 15.86 15914 -34.53
502 16595 49 15.48 15947 -34.53
503 16630 51 15.86 15981 -34.42
504 16712 49 15.48 16063 -34.42
505 16729 56 16.76 16079 -34.42
506 16745 56 16.76 16095 -34.53
507 16766 56 16.76 16115 -34.53
508 16801 51 15.86 16148 -34.53
509 16836 49 15.48 16182 -34.53
510 16869 51 15.86 16215 -34.53
511 16903 51 15.86 16248 -34.53
512 16938 49 15.48 16281 -34.53
513 16973 51 15.86 16315 -34.53
514 17010 51 15.86 16351 -34.53
515 17091 51 15.86 16431 -33.56
516 17107 56 16.76 16447 -33.56
517 17124 51 15.86 16464 -34.53
518 17144 51 15.86 16483 -34.53
519 17179 49 15.48 16516 -34.53
520 17212 51 15.86 16550 -34.53
521 17247 51 15.86 16584 -34.53
522 17281 51 15.86 16617 -34.53
523 17316 51 15.86 16650 -34.53
524 17351 51 15.86 16684 -34.53
525 17384 56 16.76 16717 -34.32
526 17419 51 15.86 16750 -34.42
527 17453 51 15.86 16783 -34.53
528 17488 51 15.86 16817 -34.53
529 17525 51 15.86 16853 -34.53
530 17555 51 15.86 16883 -34.53
531 17590 51 15.86 16916 -34.53
532 17624 51 15.86 16950 -34.53
533 17659 51 15.86 16984 -34.53
534 17694 51 15.86 17017 -34.53
535 17727 51 15.86 17051 -34.42
536 17762 51 15.86 17084 -34.53
537 17796 48 15.29 17117 -34.53
538 17831 51 15.86 17151 -34.53
539 17865 51 15.86 17184 -34.53
540 17899 51 15.86 17218 -34.42
541 17933 51 15.86 17251 -34.53
542 17968 51 15.86 17285 -34.42
543 18003 51 15.86 17319 -34.53
544 18037 54 16.41 17352 -34.53
545 18074 56 16.76 17388 -34.53
546 18104 49 15.48 17419 -34.53
547 18139 51 15.86 17453 -34.53
548 18174 49 15.48 17487 -34.53
549 18208 51 15.86 17520 -34.53
550 18243 51 15.86 17553 -34.53
551 18277 56 16.76 17587 -34.32
552 18311 51 15.86 17620 -34.42
553 18346 51 15.86 17654 -34.53
554 18380 56 16.76 17687 -34.32
555 18415 51 15.86 17720 -34.53
556 18448 51 15.86 17753 -34.53
557 18483 51 15.86 17787 -34.53
558 18517 51 15.86 17820 -34.53
559 18551 51 15.86 17854 -34.53
560 18589 51 15.86 17891 -34.53
561 18619 56 16.76 17921 -34.32
562 18654 56 16.76 17955 -34.42
563 18688 51 15.86 17988 -34.42
564 18723 51 15.86 18022 -34.42
565 18758 56 16.76 18055 -34.32
566 18791 49 15.48 18088 -34.53
567 18874 56 16.76 18170 -33.56
568 18891 49 15.48 18186 -34.53
569 18907 51 15.86 18202 -34.53
570 18929 51 15.86 18222 -34.53
571 18962 51 15.86 18255 -34.53
572 18997 56 16.76 18289 -34.32
573 19032 51 15.86 18323 -34.42
574 19066 51 15.86 18356 -34.53
575 19149 51 15.86 18438 -33.56
576 19168 51 15.86 18457 -34.53
577 19186 51 15.86 18473 -34.53
578 19203 49 15.48 18490 -34.53
579 19238 56 16.76 18523 -34.53
580 19272 51 15.86 18556 -34.53
581 19306 51 15.86 18590 -34.53
582 19341 56 16.76 18624 -34.32
583 19375 51 15.86 18657 -34.53
584 19410 51 15.86 18691 -34.53
585 19444 51 15.86 18724 -34.53
586 19477 48 15.29 18758 -34.53
587 19512 56 16.76 18791 -34.53
588 19546 56 16.76 18824 -34.42
589 19581 56 16.76 18858 -34.42
590 19615 51 15.86 18891 -34.53
591 19653 51 15.86 18928 -34.53
592 19684 56 16.76 18959 -34.53
593 19718 51 15.86 18992 -34.53
594 19753 51 15.86 19026 -34.53
595 19787 49 15.48 19059 -34.53
596 19820 51 15.86 19093 -34.53
597 19855 54 16.41 19127 -34.42
598 19889 49 15.48 19160 -34.53
599 19924 56 16.76 19194 -34.21
600 19958 49 15.48 19227 -34.53
601 19993 56 16.76 19261 -34.42
602 20026 49 15.48 19294 -34.53
603 20061 51 15.86 19328 -34.53
604 20096 49 15.48 19362 -34.53
605 20130 51 15.86 19396 -34.53
606 20164 49 15.48 19429 -34.53
607 20201 56 16.76 19466 -34.32
608 20233 51 15.86 19496 -34.53
609 20267 51 15.86 19529 -34.53
610 20302 51 15.86 19563 -34.53
611 20336 51 15.86 19597 -34.53
612 20370 56 16.76 19631 -34.42
613 20404 51 15.86 19664 -34.53
614 20439 51 15.86 19698 -34.53
615 20473 49 15.48 19732 -34.53
616 20508 56 16.76 19766 -34.32
617 20541 56 16.76 19799 -34.32
618 20576 54 16.41 19833 -34.32
619 20611 51 15.86 19866 -34.53
620 20645 51 15.86 19899 -34.53
621 20679 51 15.86 19932 -34.53
